time,counts,surv,strata
0,506328,0.998783397323474,2007
30,456516,0.89980605457332,2007
60,403142,0.793612045946501,2007
90,354702,0.695037604082729,2007
120,311753,0.614419901723784,2007
150,282044,0.555740547629205,2007
180,257407,0.507224565894045,2007
210,235727,0.464744197437235,2007
240,220118,0.434198780237317,2007
270,206344,0.406999020397845,2007
300,195184,0.384557046025501,2007
330,185583,0.366151980534357,2007
360,177519,0.350164320361505,2007
390,169993,0.335355737782623,2007
420,163030,0.321631432589152,2007
450,157227,0.310285032627072,2007
480,152120,0.300230285506628,2007
510,147478,0.290880614937353,2007
540,143262,0.282767297088054,2007
570,139533,0.275355105781233,2007
600,136000,0.268401115482454,2007
630,132600,0.261743375835427,2007
660,129573,0.255770962696118,2007
690,126793,0.250262675577886,2007
720,124236,0.245135564298241,2007
750,121671,0.240186203409647,2007
780,119361,0.235600243320535,2007
810,117092,0.231144633518194,2007
840,114720,0.226442148172726,2007
870,112622,0.222328214122071,2007
900,110603,0.218324880314736,2007
930,108627,0.214364996602992,2007
960,106651,0.210547313204089,2007
990,104818,0.206907380196236,2007
1020,102966,0.203227947101484,2007
1050,101090,0.199558389028456,2007
1080,99442,0.196329256924365,2007
1110,97808,0.19310209982462,2007
1140,96209,0.189912467807429,2007
0,534475,0.998931661911221,2008
30,487892,0.911185743018851,2008
60,437536,0.816221525796343,2008
90,390667,0.725629823658731,2008
120,350163,0.653933299031761,2008
150,322572,0.602378034519857,2008
180,299473,0.559324570840546,2008
210,278768,0.520853173675103,2008
240,263609,0.492763927218299,2008
270,250455,0.468102343421115,2008
300,239836,0.44785256560176,2008
330,230089,0.430136114879088,2008
360,221650,0.414326207961085,2008
390,213845,0.399728705739278,2008
420,206210,0.385458627625241,2008
450,199658,0.373332709668367,2008
480,193503,0.361788671125872,2008
510,187928,0.351150194115722,2008
540,182560,0.341278825015203,2008
570,177498,0.331817203798121,2008
600,172605,0.322718555591937,2008
630,167689,0.313496421722252,2008
660,163359,0.305481079564059,2008
690,159296,0.297905421207728,2008
720,155457,0.29058796014781,2008
750,151724,0.283710182889752,2008
780,148296,0.277287057392769,2008
810,144945,0.270996772533796,2008
840,141466,0.26451003321016,2008
870,138478,0.258983114271014,2008
900,135604,0.253574068010665,2008
930,132822,0.248299733383227,2008
960,130103,0.243313531970626,2008
990,127523,0.23846765517564,2008
1020,125031,0.233792038916694,2008
1050,122477,0.229039711866785,2008
1080,120310,0.224998362879461,2008
1110,118159,0.220975723841153,2008
1140,116165,0.21716637822162,2008
0,657784,0.998691059679165,2009
30,601707,0.91321771280542,2009
60,542494,0.822029724043151,2009
90,487861,0.735878343042701,2009
120,440779,0.669034211838537,2009
150,405762,0.615837417754157,2009
180,375222,0.569437687751602,2009
210,347122,0.526926772314316,2009
240,325769,0.494689746178077,2009
270,307209,0.466362818189557,2009
300,290562,0.440386205806161,2009
330,275857,0.418979482626515,2009
360,263048,0.399456356493924,2009
390,251316,0.381631356189873,2009
420,239577,0.363855004074286,2009
450,230254,0.349777434537781,2009
480,221586,0.336551208299381,2009
510,213522,0.323933084416769,2009
540,205763,0.312576772922418,2009
570,198988,0.302240553129903,2009
600,192254,0.292006190481982,2009
630,185655,0.282022670055823,2009
660,180227,0.273845213626357,2009
690,175258,0.266234812643664,2009
720,170515,0.258895017209296,2009
750,166098,0.252350315605122,2009
780,161825,0.245849701421743,2009
810,157755,0.239648577648589,2009
840,153579,0.233334954939615,2009
870,149955,0.227849871690403,2009
900,146515,0.222630833221848,2009
930,143352,0.217726487722413,2009
960,140269,0.213147476983326,2009
990,137289,0.208583668803133,2009
1020,134571,0.204445532271992,2009
1050,131849,0.200324118555635,2009
1080,129303,0.196493073714167,2009
1110,126977,0.192937195188694,2009
1140,124789,0.189606314534862,2009
0,584362,0.998459858786163,2010
30,528769,0.903368117707859,2010
60,476693,0.813338307419031,2010
90,428978,0.729131942186522,2010
120,386948,0.661078235751128,2010
150,355493,0.60730506090403,2010
180,327899,0.560267436965443,2010
210,302813,0.517393328108262,2010
240,284358,0.486037764262564,2010
270,268170,0.458217680136628,2010
300,254181,0.433885160226025,2010
330,241733,0.413240422888553,2010
360,230780,0.394490059244099,2010
390,220715,0.377303794565698,2010
420,211082,0.36086706527803,2010
450,202895,0.346940766168916,2010
480,195601,0.334421129368439,2010
510,188733,0.322431985652729,2010
540,182473,0.31202576485124,2010
570,176845,0.30237421324453,2010
600,171488,0.293217218094264,2010
630,166192,0.28416289902492,2010
660,161759,0.276653854973458,2010
690,157675,0.269656480058594,2010
720,153858,0.262982534798635,2010
750,150141,0.256787744582981,2010
780,146672,0.250861623445741,2010
810,143542,0.245507065825636,2010
840,140317,0.239998494084147,2010
870,137500,0.235184697156899,2010
900,134758,0.230485555186682,2010
930,132174,0.226017434398541,2010
960,129628,0.22171530660789,2010
990,127247,0.217647622535346,2010
1020,124949,0.213701438491894,2010
1050,122649,0.209780923468672,2010
1080,120601,0.206291647985324,2010
1110,118662,0.202961520427406,2010
1140,116728,0.199645083013612,2010
0,567312,0.99825316580647,2011
30,515031,0.906298474208196,2011
60,465299,0.817879755760499,2011
90,419073,0.734257339876471,2011
120,378593,0.666144907916632,2011
150,347454,0.611399018529487,2011
180,320900,0.564708661195251,2011
210,296761,0.522299898468568,2011
240,279246,0.49161308063288,2011
270,264177,0.465013960571961,2011
300,250996,0.441531291423415,2011
330,239496,0.421732662097753,2011
360,229421,0.403943509039119,2011
390,219988,0.387315974278704,2011
420,210885,0.371363553036072,2011
450,203259,0.358000535860338,2011
480,196344,0.345783272696506,2011
510,190095,0.334648306399301,2011
540,184249,0.324563908396086,2011
570,178896,0.315105268353217,2011
600,173801,0.306161336266464,2011
630,168905,0.297531164509124,2011
660,164744,0.290256507882788,2011
690,160859,0.283371407620498,2011
720,157246,0.276925219279691,2011
750,153794,0.270939095242124,2011
780,150567,0.265254392644612,2011
810,147408,0.25968074005133,2011
840,144173,0.253996037453817,2011
870,141498,0.249307259497419,2011
900,138745,0.244449262486956,2011
930,136209,0.239917364695264,2011
960,133646,0.235450686747327,2011
990,131322,0.231359463575598,2011
1020,129051,0.22737576501114,2011
1050,126653,0.223141763262543,2011
1080,124509,0.219392503595905,2011
1110,122523,0.215893547113405,2011
1140,120470,0.21222360887836,2011
0,588611,0.99833506339501,2012
30,539410,0.915028771123883,2012
60,491754,0.833175051094866,2012
90,446594,0.754112648251562,2012
120,406619,0.689793428936938,2012
150,376016,0.637905169967941,2012
180,349607,0.593023236059129,2012
210,324610,0.550747437611597,2012
240,305945,0.519286931436891,2012
270,290010,0.492085604924135,2012
300,276444,0.468611697708673,2012
330,264171,0.448442179979647,2012
360,253504,0.430277381836221,2012
390,243425,0.413179502251912,2012
420,233763,0.396800263671593,2012
450,225500,0.382847075572831,2012
480,218028,0.370120504034073,2012
510,210972,0.35790360696623,2012
540,204436,0.347105303842436,2012
570,198501,0.336988265594764,2012
600,192791,0.327285762583438,2012
630,187024,0.317486421422637,2012
660,182125,0.309226297164001,2012
690,177492,0.301362020077776,2012
720,173305,0.29416541654845,2012
750,169176,0.287247435063225,2012
780,165485,0.280959751007032,2012
810,161718,0.274585422290783,2012
840,157952,0.268205996829825,2012
870,154631,0.262587685245433,2012
900,151463,0.257188533683536,2012
930,148489,0.252049316101805,2012
960,145377,0.246859131072983,2012
990,142494,0.241962858322389,2012
1020,139767,0.237294240168804,2012
1050,136854,0.232384376098985,2012
1080,134362,0.228154077990387,2012
1110,131888,0.223944166860626,2012
1140,129601,0.220031565838898,2012
0,598765,0.998523627800556,2013
30,557039,0.929042278690304,2013
60,513900,0.856158927125,2013
90,471528,0.782928193865708,2013
120,431883,0.720307633211695,2013
150,401822,0.670069225823153,2013
180,374675,0.624821090077076,2013
210,348501,0.581348275199787,2013
240,328989,0.548868086812023,2013
270,312216,0.520741860329179,2013
300,297225,0.495236027489918,2013
330,283855,0.473668300585373,2013
360,272101,0.453997812163371,2013
390,260971,0.435424582265163,2013
420,249983,0.41710854842885,2013
450,241008,0.402247960385127,2013
480,232734,0.388362713251443,2013
510,224905,0.375073693352151,2013
540,217621,0.363232653879236,2013
570,211123,0.352340233647592,2013
600,204753,0.341710019790737,2013
630,198407,0.331134919375716,2013
660,192922,0.322024500430053,2013
690,187850,0.313528679866058,2013
720,182997,0.305223251192038,2013
750,178243,0.297542441525474,2013
780,173852,0.290147219693871,2013
810,169634,0.28311942080783,2013
840,165129,0.275608961779664,2013
870,161175,0.269033761158385,2013
900,157437,0.262769199936537,2013
930,153891,0.256753484255092,2013
960,150332,0.250913129524939,2013
990,147028,0.245411805967283,2013
1020,143799,0.239988977311634,2013
1050,140451,0.234435880520739,2013
1080,137491,0.229512413050196,2013
1110,134722,0.224872863310314,2013
1140,132055,0.220376942540062,2013
0,555147,0.998612979985481,2014
30,517972,0.931697370246079,2014
60,478952,0.860777415711515,2014
90,440895,0.789691739305085,2014
120,404586,0.727785613540198,2014
150,376631,0.677452998935417,2014
180,351679,0.632518954439095,2014
210,327829,0.589811347264779,2014
240,309709,0.557290231236051,2014
270,293830,0.528562705013267,2014
300,279517,0.502086834658208,2014
330,266546,0.479701772683632,2014
360,255134,0.459233320183663,2014
390,244280,0.439591675718323,2014
420,233647,0.420486826011849,2014
450,224963,0.40491797668005,2014
480,216775,0.390071458550618,2014
510,209084,0.376080569650921,2014
540,201804,0.363244329880194,2014
570,195168,0.351296143183697,2014
600,188763,0.339742446595226,2014
630,182412,0.328322048034124,2014
660,176957,0.318553464217585,2014
690,171919,0.309435158615645,2014
720,167094,0.300635687484576,2014
750,162477,0.292445064100139,2014
780,158115,0.284639924200257,2014
810,153986,0.277207658512069,2014
840,149757,0.269555631211192,2014
870,146088,0.262971789453964,2014
900,142481,0.256517643074717,2014
930,139189,0.250443576205942,2014
960,135851,0.244556847105361,2014
990,132697,0.23888987961747,2014
1020,129640,0.233404845923692,2014
1050,126653,0.227973851970739,2014
1080,123871,0.22300579846419,2014
1110,121318,0.218387201948313,2014
1140,118774,0.213770406757129,2014
0,538869,0.998348392652017,2015
30,501082,0.928639428135595,2015
60,463613,0.858462817493677,2015
90,427545,0.788859630077069,2015
120,392388,0.727061679183623,2015
150,364535,0.675544520096721,2015
180,339396,0.62884114692068,2015
210,314490,0.582729754355882,2015
240,294993,0.5467692518961,2015
270,278199,0.515590987791095,2015
300,263606,0.487825426959056,2015
330,250475,0.464354045231772,2015
360,238909,0.442933254650016,2015
390,228328,0.423232733744193,2015
420,218024,0.404211413163496,2015
450,209388,0.38822793665993,2015
480,201496,0.373558323080377,2015
510,194438,0.360254533105448,2015
540,187691,0.34805119611631,2015
570,181452,0.336449118431381,2015
600,175379,0.325197775340574,2015
630,169527,0.314347271785907,2015
660,164428,0.304933109902406,2015
690,159723,0.296168456526539,2015
720,155328,0.287882583707728,2015
750,150965,0.279949301221632,2015
780,146882,0.272370464806845,2015
810,142879,0.264962356342636,2015
840,138931,0.257635900376529,2015
870,135379,0.251068441495057,2015
900,131959,0.244734805676333,2015
930,128881,0.238956035696988,2015
960,125780,0.233255206738558,2015
990,122863,0.227851295955046,2015
1020,120051,0.222627391815079,2015
1050,117166,0.217281008927958,2015
1080,114543,0.212437531199605,2015
1110,112038,0.207798184716508,2015
1140,109608,0.203218221868394,2015
0,534734,0.998180403714744,2016
30,497872,0.929738898218553,2016
60,462040,0.861929482696069,2016
90,425592,0.790972707925809,2016
120,389443,0.727185853153156,2016
150,360634,0.673392752284313,2016
180,334886,0.625176255858053,2016
210,310130,0.578992545826523,2016
240,291084,0.54372080324049,2016
270,274967,0.513473988936556,2016
300,260578,0.485940673306729,2016
330,247431,0.462259740356888,2016
360,236060,0.441000572247136,2016
390,225381,0.421018674705555,2016
420,214703,0.401036777163973,2016
450,205844,0.384593087404205,2016
480,197793,0.369497731582432,2016
510,190350,0.355288797794792,2016
540,183296,0.342532922911204,2016
570,177013,0.330777545471206,2016
600,171092,0.319691659778507,2016
630,165257,0.308764731623574,2016
660,160167,0.299352575299121,2016
690,155453,0.290439732652123,2016
720,150888,0.281841064903298,2016
750,146501,0.273756671541364,2016
780,142497,0.266261356113507,2016
810,138495,0.258752950064892,2016
840,134471,0.251296906499306,2016
870,131020,0.24488437241694,2016
900,127768,0.238761702079912,2016
930,124657,0.232880273182554,2016
960,121541,0.22716902235504,2016
990,118602,0.221637300040768,2016
1020,115816,0.216430973156747,2016
1050,113110,0.211383603810493,2016
1080,110718,0.206957103905867,2016
1110,108413,0.202625978523902,2016
1140,106233,0.198504303074052,2016
0,471142,0.998089747889171,2017
30,438699,0.929900115039627,2017
60,407006,0.861508844467273,2017
90,374857,0.789515687414835,2017
120,342018,0.724747528346019,2017
150,316358,0.670441183337508,2017
180,293972,0.622846190745041,2017
210,273396,0.579462242805779,2017
240,257541,0.545952175777155,2017
270,243599,0.516141630336502,2017
300,231176,0.489109440465932,2017
330,219692,0.465778894685679,2017
360,209476,0.444082675711357,2017
390,199775,0.4234328503933,2017
420,190358,0.403530145900812,2017
450,182518,0.387042547682015,2017
480,175377,0.371779633316495,2017
510,168941,0.357783852851158,2017
540,162822,0.345297171553375,2017
570,157349,0.333710431250027,2017
600,152156,0.322658561537711,2017
630,146979,0.311678856905137,2017
660,142683,0.302600914374011,2017
690,138727,0.294221275114509,2017
720,134934,0.285977476005111,2017
750,131389,0.278716395481617,2017
780,128073,0.271676055202041,2017
810,125025,0.265174830518188,2017
840,121994,0.258771240942221,2017
870,119442,0.253399187506102,2017
900,117010,0.248216036778721,2017
930,114829,0.243518939088428,2017
960,112917,0.239549859702595,2017
990,111177,0.235882175649804,2017
1020,109638,0.232598664521525,2017
1050,108102,0.229380950965951,2017
1080,106758,0.226519817804399,2017
1110,105487,0.223798769797641,2017
1140,104259,0.221171111894079,2017
0,430299,0.998728790910506,2018
30,405582,0.941503466194437,2018
60,378832,0.877698995349745,2018
90,349967,0.805567756374056,2018
120,319976,0.742346600851966,2018
150,297825,0.691072951598772,2018
180,278656,0.64641563192106,2018
210,260325,0.604089249568323,2018
240,245453,0.56967132156942,2018
270,232316,0.538820680503557,2018
300,220828,0.511056265526994,2018
330,210367,0.488383658804692,2018
360,201500,0.467753817694208,2018
390,192757,0.447484191225171,2018
420,184874,0.429155075889091,2018
450,178123,0.413617043032868,2018
480,172213,0.399782476835875,2018
510,166965,0.38712151318037,2018
540,162247,0.376768247195555,2018
570,158351,0.367846543914813,2018
600,154909,0.359756820257542,2018
630,151866,0.352738444662897,2018
660,149225,0.346642683343442,2018
690,146869,0.341125589415732,2018
720,144627,0.335759553240886,2018
750,142409,0.330835070497491,2018
780,140373,0.326108124815535,2018
810,138491,0.321736745844169,2018
840,136464,0.317028391885642,2018
870,134407,0.312220107413682,2018
900,132181,0.307009776922559,2018
930,129833,0.301304441795124,2018
960,127225,0.295531711670257,2018
990,124841,0.289989054122831,2018
1020,122385,0.284237239686823,2018
1050,119763,0.278178661814227,2018
1080,117291,0.272433819274505,2018
1110,114823,0.266598342083064,2018
1140,112332,0.260690821963333,2018
0,412783,0.999159364605616,2019
30,395889,0.95811116252365,2019
60,372876,0.901219284708915,2019
90,347967,0.8367471528624,2019
120,324452,0.784957229343262,2019
150,306471,0.741597885571838,2019
180,291352,0.704951512053548,2019
210,277814,0.672367805844717,2019
240,267558,0.647713205243432,2019
270,259067,0.626903239716751,2019
300,251912,0.608765380357233,2019
330,245435,0.594297730284435,2019
360,239582,0.580154705983531,2019
390,234361,0.567445849271894,2019
420,229231,0.555039815108665,2019
450,224323,0.543174016371799,2019
480,219365,0.530959366059165,2019
510,213997,0.517170038494803,2019
540,208059,0.503712604443497,2019
570,202606,0.49040779295659,2019
600,196935,0.476664494419586,2019
630,191079,0.462531160440232,2019
660,185797,0.449802923085496,2019
690,180537,0.436832427692032,2019
720,175231,0.423263554942912,2019
750,169577,0.410491711141206,2019
780,164705,0.398691322074795,2019
810,159676,0.386471826601387,2019
840,154564,0.374138469849776,2019
870,150063,0.363309535518663,2019
900,145595,0.352332823783926,2019
930,141315,0.341612905570239,2019
960,137241,0.33226416785575,2019
990,133492,0.323179491403474,2019
1020,129863,0.314361298793798,2019
1050,126192,0.30547285135289,2019
1080,122895,0.297597042513864,2019
1110,119760,0.289888391721559,2019
1140,116687,0.282155515125381,2019
0,1407401,0.998832599948416,2020
30,1320058,0.936049498330611,2020
60,1213896,0.860729102793021,2020
90,1117629,0.791892289404371,2020
120,1029598,0.730270193072196,2020
150,955315,0.676976924131788,2020
180,880096,0.623319864061488,2020
210,794026,0.562415402575387,2020
240,726429,0.515001055136384,2020
270,668409,0.474014868541377,2020
300,624994,0.442892963696915,2020
330,578430,0.410185156895584,2020
360,530509,0.376118817593566,2020
390,474189,0.336282978340929,2020
420,431478,0.305814760682991,2020
450,399895,0.283635580761987,2020
480,373630,0.265055943544165,2020
510,352281,0.249790216150195,2020
540,333585,0.236678103824,2020
570,315862,0.22413512566781,2020
600,298043,0.21149267337454,2020
630,280458,0.198971721634418,2020
660,268217,0.190375735131637,2020
690,255500,0.181302272770874,2020
720,243234,0.172508048523485,2020
750,231511,0.164298590096213,2020
780,220633,0.156601423474902,2020
810,210833,0.149663812943149,2020
840,198897,0.143902758920845,2020
870,183769,0.138946412335636,2020
900,169389,0.133906017982488,2020
930,155120,0.129043230349373,2020
960,140756,0.124363679794635,2020
990,126250,0.120101179859042,2020
1020,112268,0.116668639146812,2020
1050,97969,0.112961154501148,2020
1080,79911,0.109260395529944,2020
1110,28061,0.106379234029475,2020
1140,15310,0.103842952007098,2020
